# Azimuth Pattern Measurements
# 
# 
# Time Stamp: 2022-10-28 15:22:11.556091
# Rig: IcomIC9700
# Rig Connection: FLRIG
# 
Theta	Az	El	s	db	S
179.000000	177.000000	0.000000	13.000000	13.000000	2.166667
175.000000	176.000000	0.000000	13.000000	13.000000	2.166667
170.000000	171.000000	0.000000	15.500000	15.500000	2.583333
165.000000	167.000000	0.000000	17.800000	17.800000	2.966667
160.000000	161.000000	0.000000	14.000000	14.000000	2.333333
155.000000	156.000000	0.000000	0.400000	0.400000	0.066667
150.000000	150.000000	0.000000	0.800000	0.800000	0.133333
145.000000	146.000000	0.000000	17.200000	17.200000	2.866667
140.000000	141.000000	0.000000	26.000000	26.000000	4.333333
135.000000	137.000000	0.000000	30.800000	30.800000	5.133333
130.000000	131.000000	0.000000	36.700000	36.700000	6.116667
125.000000	125.000000	0.000000	42.900000	42.900000	7.150000
120.000000	121.000000	0.000000	47.000000	47.000000	7.833333
115.000000	116.000000	0.000000	49.100000	49.100000	8.183333
110.000000	112.000000	0.000000	49.800000	49.800000	8.300000
105.000000	106.000000	0.000000	47.900000	47.900000	7.983333
100.000000	102.000000	0.000000	45.600000	45.600000	7.600000
95.000000	97.000000	0.000000	43.300000	43.300000	7.216667
90.000000	92.000000	0.000000	38.000000	38.000000	6.333333
85.000000	87.000000	0.000000	38.200000	38.200000	6.366667
80.000000	82.000000	0.000000	39.100000	39.100000	6.516667
75.000000	77.000000	0.000000	40.100000	40.100000	6.683333
70.000000	70.000000	0.000000	41.300000	41.300000	6.883333
65.000000	67.000000	0.000000	41.400000	41.400000	6.900000
60.000000	62.000000	0.000000	41.600000	41.600000	6.933333
55.000000	56.000000	0.000000	42.600000	42.600000	7.100000
50.000000	52.000000	0.000000	44.400000	44.400000	7.400000
45.000000	47.000000	0.000000	47.300000	47.300000	7.883333
40.000000	41.000000	0.000000	51.000000	51.000000	8.500000
35.000000	36.000000	0.000000	53.000000	53.000000	8.833333
30.000000	32.000000	0.000000	54.600000	54.600000	9.000000
25.000000	26.000000	0.000000	56.000000	56.000000	9.000000
20.000000	21.000000	0.000000	56.900000	56.900000	9.000000
15.000000	15.000000	0.000000	58.000000	58.000000	9.000000
10.000000	11.000000	0.000000	58.000000	58.000000	9.000000
5.000000	6.000000	0.000000	59.000000	59.000000	9.000000
0.000000	2.000000	0.000000	59.000000	59.000000	9.000000
-5.000000	-4.000000	0.000000	59.000000	59.000000	9.000000
-10.000000	-8.000000	0.000000	59.000000	59.000000	9.000000
-15.000000	-13.000000	0.000000	59.000000	59.000000	9.000000
-20.000000	-20.000000	0.000000	58.300000	58.300000	9.000000
-25.000000	-24.000000	0.000000	58.000000	58.000000	9.000000
-30.000000	-28.000000	0.000000	58.000000	58.000000	9.000000
-35.000000	-34.000000	0.000000	57.000000	57.000000	9.000000
-40.000000	-39.000000	0.000000	57.000000	57.000000	9.000000
-45.000000	-43.000000	0.000000	56.000000	56.000000	9.000000
-50.000000	-49.000000	0.000000	55.000000	55.000000	9.000000
-55.000000	-55.000000	0.000000	54.000000	54.000000	9.000000
-60.000000	-58.000000	0.000000	53.000000	53.000000	8.833333
-65.000000	-63.000000	0.000000	51.000000	51.000000	8.500000
-70.000000	-70.000000	0.000000	43.100000	43.100000	7.183333
-75.000000	-74.000000	0.000000	38.000000	38.000000	6.333333
-80.000000	-78.000000	0.000000	36.600000	36.600000	6.100000
-85.000000	-83.000000	0.000000	38.400000	38.400000	6.400000
-90.000000	-88.000000	0.000000	41.100000	41.100000	6.850000
-95.000000	-94.000000	0.000000	44.400000	44.400000	7.400000
-100.000000	-98.000000	0.000000	46.000000	46.000000	7.666667
-105.000000	-103.000000	0.000000	46.700000	46.700000	7.783333
-110.000000	-108.000000	0.000000	46.400000	46.400000	7.733333
-115.000000	-114.000000	0.000000	45.100000	45.100000	7.516667
-120.000000	-119.000000	0.000000	43.900000	43.900000	7.316667
-125.000000	-123.000000	0.000000	43.000000	43.000000	7.166667
-130.000000	-128.000000	0.000000	42.700000	42.700000	7.116667
-135.000000	-134.000000	0.000000	41.200000	41.200000	6.866667
-140.000000	-138.000000	0.000000	40.400000	40.400000	6.733333
-145.000000	-143.000000	0.000000	39.300000	39.300000	6.550000
-150.000000	-148.000000	0.000000	37.800000	37.800000	6.300000
-155.000000	-154.000000	0.000000	37.200000	37.200000	6.200000
-160.000000	-158.000000	0.000000	34.700000	34.700000	5.783333
-165.000000	-165.000000	0.000000	28.500000	28.500000	4.750000
-170.000000	-168.000000	0.000000	19.500000	19.500000	3.250000
-175.000000	-174.000000	0.000000	0.000000	0.000000	0.000000
-179.000000	-178.000000	0.000000	14.500000	14.500000	2.416667
