# Azimuth Pattern Measurements
# 
# 
# Time Stamp: 2022-10-18 18:02:10.855303
# Rig: IcomIC9700
# Rig Connection: FLRIG
# 
Theta	Az	El	s	db	S
-179.000000	-178.000000	0.000000	56.000000	56.000000	9.000000
-170.000000	-172.000000	0.000000	57.000000	57.000000	9.000000
-160.000000	-164.000000	0.000000	57.000000	57.000000	9.000000
-150.000000	-154.000000	0.000000	57.100000	57.100000	9.000000
-140.000000	-142.000000	0.000000	59.000000	59.000000	9.000000
-130.000000	-134.000000	0.000000	60.000000	60.000000	9.000000
-120.000000	-122.000000	0.000000	61.000000	61.000000	9.000000
-110.000000	-114.000000	0.000000	60.000000	60.000000	9.000000
-100.000000	-102.000000	0.000000	58.000000	58.000000	9.000000
-90.000000	-92.000000	0.000000	55.400000	55.400000	9.000000
-80.000000	-81.000000	0.000000	61.000000	61.000000	9.000000
-70.000000	-71.000000	0.000000	65.000000	65.000000	9.000000
-60.000000	-62.000000	0.000000	67.000000	67.000000	9.000000
-50.000000	-52.000000	0.000000	68.000000	68.000000	9.000000
-40.000000	-41.000000	0.000000	69.000000	69.000000	9.000000
-30.000000	-32.000000	0.000000	70.000000	70.000000	9.000000
-20.000000	-22.000000	0.000000	70.000000	70.000000	9.000000
-10.000000	-11.000000	0.000000	70.400000	70.400000	9.000000
0.000000	-3.000000	0.000000	70.000000	70.000000	9.000000
10.000000	8.000000	0.000000	69.000000	69.000000	9.000000
20.000000	19.000000	0.000000	66.900000	66.900000	9.000000
30.000000	27.000000	0.000000	64.000000	64.000000	9.000000
40.000000	38.000000	0.000000	60.000000	60.000000	9.000000
50.000000	48.000000	0.000000	60.000000	60.000000	9.000000
60.000000	57.000000	0.000000	61.000000	61.000000	9.000000
70.000000	68.000000	0.000000	61.000000	61.000000	9.000000
80.000000	78.000000	0.000000	60.000000	60.000000	9.000000
90.000000	87.000000	0.000000	61.000000	61.000000	9.000000
100.000000	97.000000	0.000000	62.000000	62.000000	9.000000
110.000000	107.000000	0.000000	62.000000	62.000000	9.000000
120.000000	116.000000	0.000000	59.000000	59.000000	9.000000
130.000000	128.000000	0.000000	53.000000	53.000000	8.833333
140.000000	137.000000	0.000000	21.700000	21.700000	3.616667
150.000000	148.000000	0.000000	45.400000	45.400000	7.566667
160.000000	158.000000	0.000000	20.500000	20.500000	3.416667
170.000000	166.000000	0.000000	52.100000	52.100000	8.683333
179.000000	173.000000	0.000000	56.000000	56.000000	9.000000
